(u'474 500 0', 1506432392.827755, 275)
(u'505 502 0', 1506432392.84445, 276)
(u'495 501 0', 1506432392.862535, 277)
(u'504 502 0', 1506432392.880846, 278)
(u'538 520 0', 1506432392.899206, 279)
(u'571 545 0', 1506432392.917312, 280)
(u'567 556 0', 1506432392.935321, 281)
(u'597 576 0', 1506432392.953387, 282)
(u'608 592 0', 1506432392.971282, 283)
(u'570 590 0', 1506432392.988567, 284)
(u'554 588 0', 1506432393.006585, 285)
(u'550 586 0', 1506432393.024472, 286)
(u'516 582 0', 1506432393.042457, 287)
(u'483 577 0', 1506432393.061277, 288)
(u'496 572 0', 1506432393.078535, 289)
(u'503 568 0', 1506432393.097466, 290)
(u'488 564 0', 1506432393.115143, 291)
(u'505 561 0', 1506432393.132872, 292)
(u'527 559 0', 1506432393.151086, 293)
(u'507 556 0', 1506432393.168555, 294)
(u'504 553 0', 1506432393.186604, 295)
(u'531 551 0', 1506432393.204821, 296)
(u'523 549 0', 1506432393.223124, 297)
(u'507 546 0', 1506432393.241551, 298)
(u'523 544 0', 1506432393.259249, 299)
(u'518 542 0', 1506432393.277318, 300)
(u'484 539 0', 1506432393.295438, 301)
(u'493 536 0', 1506432393.312995, 302)
(u'513 534 0', 1506432393.330931, 303)
(u'495 532 0', 1506432393.349007, 304)
(u'493 530 0', 1506432393.367133, 305)
(u'512 529 0', 1506432393.384488, 306)
(u'485 526 0', 1506432393.403283, 307)
(u'458 522 0', 1506432393.420433, 308)
(u'483 520 0', 1506432393.439269, 309)
(u'495 518 0', 1506432393.456522, 310)
(u'474 515 0', 1506432393.474521, 311)
(u'489 513 0', 1506432393.492498, 312)
(u'502 512 0', 1506432393.510525, 313)
(u'475 510 0', 1506432393.529636, 314)
(u'483 508 0', 1506432393.548029, 315)
(u'524 516 0', 1506432393.564747, 316)
(u'513 515 0', 1506432393.582525, 317)
(u'508 514 0', 1506432393.600582, 318)
(u'520 517 0', 1506432393.618487, 319)
(u'509 516 0', 1506432393.636508, 320)
(u'489 514 0', 1506432393.654675, 321)
(u'501 513 0', 1506432393.672685, 322)
(u'526 519 0', 1506432393.690582, 323)
(u'518 518 0', 1506432393.708369, 324)
(u'558 538 0', 1506432393.72645, 325)
(u'593 565 0', 1506432393.744561, 326)
(u'593 579 0', 1506432393.762666, 327)
(u'582 580 0', 1506432393.781104, 328)
(u'596 588 0', 1506432393.798608, 329)
(u'586 587 0', 1506432393.816571, 330)
(u'545 584 0', 1506432393.834534, 331)
(u'527 581 0', 1506432393.853862, 332)
(u'519 577 0', 1506432393.871633, 333)
(u'481 572 0', 1506432393.888629, 334)
(u'478 567 0', 1506432393.906667, 335)
(u'504 563 0', 1506432393.924666, 336)
(u'499 559 0', 1506432393.942682, 337)
(u'487 555 0', 1506432393.961604, 338)
(u'517 553 0', 1506432393.97967, 339)
(u'521 551 0', 1506432393.998029, 340)
(u'495 548 0', 1506432394.014712, 341)
(u'511 546 0', 1506432394.03265, 342)
(u'536 545 0', 1506432394.050674, 343)
(u'516 543 0', 1506432394.068565, 344)
(u'517 541 0', 1506432394.087538, 345)
(u'541 541 0', 1506432394.105411, 346)
(u'522 540 0', 1506432394.122896, 347)
(u'494 537 0', 1506432394.140565, 348)
(u'512 535 0', 1506432394.159765, 349)
(u'515 534 0', 1506432394.177364, 350)
(u'486 531 0', 1506432394.19544, 351)
(u'488 528 0', 1506432394.213829, 352)
(u'495 526 0', 1506432394.231593, 353)
(u'473 523 0', 1506432394.249385, 354)
(u'469 520 0', 1506432394.267245, 355)
(u'501 519 0', 1506432394.285179, 356)
(u'490 517 0', 1506432394.303358, 357)
(u'471 514 0', 1506432394.320776, 358)
(u'498 513 0', 1506432394.339638, 359)
(u'508 512 0', 1506432394.357652, 360)
(u'488 510 0', 1506432394.375307, 361)
(u'506 509 0', 1506432394.393418, 362)
(u'525 517 0', 1506432394.41156, 363)
(u'494 515 0', 1506432394.428949, 364)
(u'509 514 0', 1506432394.44792, 365)
(u'535 524 0', 1506432394.464725, 366)
(u'522 523 0', 1506432394.482473, 367)
(u'536 529 0', 1506432394.502022, 368)
(u'570 549 0', 1506432394.518554, 369)
(u'596 572 0', 1506432394.537714, 370)
(u'577 574 0', 1506432394.554361, 371)
(u'589 581 0', 1506432394.573721, 372)
(u'600 590 0', 1506432394.591542, 373)
(u'558 588 0', 1506432394.609219, 374)
(u'531 585 0', 1506432394.627212, 375)
(u'524 581 0', 1506432394.645254, 376)
(u'494 576 0', 1506432394.662999, 377)
(u'467 570 0', 1506432394.680859, 378)
(u'493 566 0', 1506432394.698447, 379)
(u'503 562 0', 1506432394.716533, 380)
(u'481 557 0', 1506432394.734668, 381)
(u'499 554 0', 1506432394.752682, 382)
(u'523 552 0', 1506432394.770605, 383)
(u'504 549 0', 1506432394.788667, 384)
(u'503 546 0', 1506432394.808072, 385)
(u'530 545 0', 1506432394.824559, 386)
(u'514 543 0', 1506432394.842671, 387)
(u'499 540 0', 1506432394.860653, 388)
(u'521 539 0', 1506432394.878683, 389)
(u'519 538 0', 1506432394.897558, 390)
(u'489 535 0', 1506432394.915963, 391)
(u'505 533 0', 1506432394.932659, 392)
(u'519 532 0', 1506432394.950793, 393)
(u'496 530 0', 1506432394.968613, 394)
(u'484 527 0', 1506432394.986391, 395)
(u'505 525 0', 1506432395.005037, 396)
(u'490 523 0', 1506432395.023151, 397)
(u'468 520 0', 1506432395.041224, 398)
(u'493 518 0', 1506432395.059312, 399)
(u'501 517 0', 1506432395.077416, 400)
(u'482 515 0', 1506432395.094535, 401)
(u'497 514 0', 1506432395.113893, 402)
(u'513 513 0', 1506432395.130902, 403)
(u'490 511 0', 1506432395.149659, 404)
(u'485 509 0', 1506432395.167674, 405)
(u'512 510 0', 1506432395.185559, 406)
(u'491 509 0', 1506432395.203651, 407)
(u'496 508 0', 1506432395.221668, 408)
(u'528 518 0', 1506432395.239765, 409)
(u'547 532 0', 1506432395.256667, 410)
(u'555 543 0', 1506432395.274679, 411)
(u'597 570 0', 1506432395.292676, 412)
(u'620 595 0', 1506432395.310703, 413)
(u'596 595 0', 1506432395.328533, 414)
(u'575 594 0', 1506432395.346908, 415)
(u'585 593 0', 1506432395.364753, 416)
(u'543 590 0', 1506432395.382692, 417)
(u'506 585 0', 1506432395.400686, 418)
(u'512 581 0', 1506432395.419035, 419)
(u'503 577 0', 1506432395.43677, 420)
(u'468 571 0', 1506432395.454693, 421)
(u'481 566 0', 1506432395.472697, 422)
(u'505 562 0', 1506432395.490609, 423)
(u'489 558 0', 1506432395.508703, 424)
(u'494 554 0', 1506432395.526699, 425)
(u'529 552 0', 1506432395.544642, 426)
(u'524 550 0', 1506432395.562687, 427)
(u'506 547 0', 1506432395.581072, 428)
(u'525 545 0', 1506432395.598579, 429)
(u'528 544 0', 1506432395.617786, 430)
(u'500 541 0', 1506432395.636076, 431)
(u'503 539 0', 1506432395.652704, 432)
(u'514 537 0', 1506432395.671068, 433)
(u'487 534 0', 1506432395.689138, 434)
(u'482 531 0', 1506432395.707105, 435)
(u'515 530 0', 1506432395.725464, 436)
(u'505 528 0', 1506432395.743408, 437)
(u'481 525 0', 1506432395.762084, 438)
(u'497 523 0', 1506432395.778592, 439)
(u'497 521 0', 1506432395.796907, 440)
(u'478 518 0', 1506432395.814862, 441)
(u'490 516 0', 1506432395.832716, 442)
(u'508 515 0', 1506432395.850699, 443)
(u'480 513 0', 1506432395.868692, 444)
(u'469 510 0', 1506432395.886702, 445)
(u'492 509 0', 1506432395.905779, 446)
(u'482 507 0', 1506432395.922542, 447)
(u'468 505 0', 1506432395.940457, 448)
(u'492 504 0', 1506432395.959769, 449)
(u'507 505 0', 1506432395.976629, 450)
(u'491 504 0', 1506432395.994676, 451)
(u'544 524 0', 1506432396.014344, 452)
(u'581 552 0', 1506432396.031098, 453)
(u'594 573 0', 1506432396.049026, 454)
(u'610 591 0', 1506432396.067149, 455)
(u'637 614 0', 1506432396.085216, 456)
(u'609 613 0', 1506432396.102614, 457)
(u'574 611 0', 1506432396.12045, 458)
(u'569 608 0', 1506432396.138648, 459)
(u'553 605 0', 1506432396.156555, 460)
(u'516 600 0', 1506432396.174719, 461)
(u'528 596 0', 1506432396.193214, 462)
(u'550 593 0', 1506432396.210645, 463)
(u'523 589 0', 1506432396.228571, 464)
(u'513 585 0', 1506432396.246743, 465)
(u'531 582 0', 1506432396.264726, 466)
(u'513 578 0', 1506432396.282681, 467)
(u'488 573 0', 1506432396.300687, 468)
(u'511 569 0', 1506432396.319414, 469)
(u'514 566 0', 1506432396.337574, 470)
(u'489 562 0', 1506432396.355673, 471)
(u'514 559 0', 1506432396.373809, 472)
(u'536 557 0', 1506432396.391441, 473)
(u'512 554 0', 1506432396.408848, 474)
(u'499 551 0', 1506432396.426557, 475)
(u'520 549 0', 1506432396.4446, 476)
(u'505 546 0', 1506432396.462684, 477)
(u'486 543 0', 1506432396.48093, 478)
(u'503 541 0', 1506432396.498578, 479)
(u'505 539 0', 1506432396.516644, 480)
(u'477 535 0', 1506432396.534396, 481)
(u'491 532 0', 1506432396.553939, 482)
(u'495 530 0', 1506432396.571836, 483)
(u'467 526 0', 1506432396.590167, 484)
(u'473 523 0', 1506432396.606834, 485)
(u'505 522 0', 1506432396.625242, 486)
(u'492 520 0', 1506432396.643053, 487)
(u'470 517 0', 1506432396.661159, 488)
(u'490 515 0', 1506432396.678607, 489)
(u'491 513 0', 1506432396.696913, 490)
(u'466 510 0', 1506432396.715234, 491)
(u'483 508 0', 1506432396.733151, 492)
(u'504 507 0', 1506432396.75129, 493)
(u'487 506 0', 1506432396.76859, 494)
(u'502 505 0', 1506432396.787424, 495)
(u'562 533 0', 1506432396.80528, 496)
(u'571 552 0', 1506432396.823336, 497)
(u'581 566 0', 1506432396.840586, 498)
(u'622 594 0', 1506432396.85869, 499)
(u'640 617 0', 1506432396.8767, 500)
(u'616 616 0', 1506432396.89551, 501)
(u'612 615 0', 1506432396.913585, 502)
(u'588 613 0', 1506432396.931671, 503)
(u'528 608 0', 1506432396.949246, 504)
(u'505 602 0', 1506432396.967366, 505)
(u'519 597 0', 1506432396.985438, 506)
(u'496 591 0', 1506432397.003412, 507)
(u'478 585 0', 1506432397.021475, 508)
(u'505 581 0', 1506432397.039599, 509)
(u'515 577 0', 1506432397.057763, 510)
(u'493 572 0', 1506432397.075781, 511)
(u'506 568 0', 1506432397.093468, 512)
(u'524 565 0', 1506432397.110582, 513)
(u'503 561 0', 1506432397.128532, 514)
(u'501 558 0', 1506432397.147986, 515)
(u'529 556 0', 1506432397.165672, 516)
(u'511 553 0', 1506432397.183681, 517)
(u'492 549 0', 1506432397.201879, 518)
(u'512 547 0', 1506432397.218545, 519)
(u'510 545 0', 1506432397.237514, 520)
(u'483 541 0', 1506432397.255503, 521)
(u'490 538 0', 1506432397.273549, 522)
(u'512 536 0', 1506432397.291175, 523)
(u'486 533 0', 1506432397.309322, 524)
(u'476 530 0', 1506432397.327109, 525)
(u'498 528 0', 1506432397.344587, 526)
(u'481 525 0', 1506432397.36414, 527)
(u'458 521 0', 1506432397.381007, 528)
(u'474 518 0', 1506432397.399202, 529)
(u'475 515 0', 1506432397.417423, 530)
(u'459 512 0', 1506432397.434385, 531)
(u'473 510 0', 1506432397.45371, 532)
(u'494 509 0', 1506432397.47157, 533)
(u'478 507 0', 1506432397.489861, 534)
(u'479 505 0', 1506432397.506705, 535)
(u'500 504 0', 1506432397.524684, 536)
(u'484 503 0', 1506432397.542722, 537)
(u'456 500 0', 1506432397.560715, 538)
(u'482 499 0', 1506432397.580243, 539)
(u'493 498 0', 1506432397.596935, 540)
(u'484 497 0', 1506432397.615089, 541)
(u'522 509 0', 1506432397.633129, 542)
(u'564 536 0', 1506432397.651311, 543)
(u'585 560 0', 1506432397.66873, 544)
(u'615 587 0', 1506432397.686633, 545)
(u'654 620 0', 1506432397.705531, 546)
(u'629 624 0', 1506432397.723183, 547)
(u'590 622 0', 1506432397.741427, 548)
(u'591 620 0', 1506432397.759608, 549)
(u'556 616 0', 1506432397.777571, 550)
(u'503 610 0', 1506432397.795181, 551)
(u'498 604 0', 1506432397.813042, 552)
