(u'532 641 0', 1506432402.834636, 831)
(u'522 635 0', 1506432402.852315, 832)
(u'526 629 0', 1506432402.870351, 833)
(u'497 622 0', 1506432402.888322, 834)
(u'492 615 0', 1506432402.906672, 835)
(u'515 610 0', 1506432402.924756, 836)
(u'506 604 0', 1506432402.942719, 837)
(u'493 598 0', 1506432402.960711, 838)
(u'521 594 0', 1506432402.978408, 839)
(u'530 590 0', 1506432402.996937, 840)
(u'513 586 0', 1506432403.014383, 841)
(u'529 583 0', 1506432403.032514, 842)
(u'551 581 0', 1506432403.050643, 843)
(u'529 578 0', 1506432403.068777, 844)
(u'521 575 0', 1506432403.086675, 845)
(u'536 573 0', 1506432403.104743, 846)
(u'516 570 0', 1506432403.122624, 847)
(u'487 565 0', 1506432403.140677, 848)
(u'500 561 0', 1506432403.158511, 849)
(u'498 557 0', 1506432403.176505, 850)
(u'474 552 0', 1506432403.194718, 851)
(u'488 548 0', 1506432403.212748, 852)
(u'510 546 0', 1506432403.231165, 853)
(u'489 543 0', 1506432403.248653, 854)
(u'488 540 0', 1506432403.266663, 855)
(u'508 538 0', 1506432403.284667, 856)
(u'494 535 0', 1506432403.302602, 857)
(u'474 531 0', 1506432403.320634, 858)
(u'491 529 0', 1506432403.338636, 859)
(u'492 527 0', 1506432403.356374, 860)
(u'462 523 0', 1506432403.374535, 861)
(u'469 520 0', 1506432403.392641, 862)
(u'485 518 0', 1506432403.410769, 863)
(u'468 515 0', 1506432403.428739, 864)
(u'476 513 0', 1506432403.447, 865)
(u'518 515 0', 1506432403.46462, 866)
(u'529 522 0', 1506432403.482632, 867)
(u'560 541 0', 1506432403.500441, 868)
(u'630 585 0', 1506432403.518612, 869)
(u'658 621 0', 1506432403.536901, 870)
(u'645 633 0', 1506432403.554776, 871)
(u'656 644 0', 1506432403.572739, 872)
(u'657 650 0', 1506432403.590496, 873)
(u'610 648 0', 1506432403.608502, 874)
(u'582 644 0', 1506432403.626608, 875)
(u'565 640 0', 1506432403.644705, 876)
(u'520 634 0', 1506432403.66275, 877)
(u'489 626 0', 1506432403.681186, 878)
(u'510 620 0', 1506432403.698411, 879)
(u'520 615 0', 1506432403.716627, 880)
(u'490 608 0', 1506432403.734767, 881)
(u'504 602 0', 1506432403.75266, 882)
(u'525 598 0', 1506432403.77069, 883)
(u'506 593 0', 1506432403.788681, 884)
(u'509 588 0', 1506432403.806407, 885)
(u'543 585 0', 1506432403.824616, 886)
(u'534 582 0', 1506432403.842655, 887)
(u'520 578 0', 1506432403.86064, 888)
(u'536 575 0', 1506432403.878647, 889)
(u'526 572 0', 1506432403.896876, 890)
(u'499 568 0', 1506432403.91477, 891)
(u'503 564 0', 1506432403.932571, 892)
(u'510 561 0', 1506432403.95063, 893)
(u'486 557 0', 1506432403.96843, 894)
(u'484 553 0', 1506432403.986557, 895)
(u'511 550 0', 1506432404.004531, 896)
(u'496 547 0', 1506432404.022775, 897)
(u'480 543 0', 1506432404.040779, 898)
(u'501 540 0', 1506432404.058506, 899)
(u'499 537 0', 1506432404.076707, 900)
(u'469 533 0', 1506432404.094419, 901)
(u'478 530 0', 1506432404.112605, 902)
(u'497 528 0', 1506432404.130873, 903)
(u'477 525 0', 1506432404.148608, 904)
(u'476 522 0', 1506432404.166617, 905)
(u'508 521 0', 1506432404.184503, 906)
(u'504 520 0', 1506432404.202538, 907)
(u'485 518 0', 1506432404.220639, 908)
(u'503 517 0', 1506432404.238653, 909)
(u'516 516 0', 1506432404.256784, 910)
(u'509 515 0', 1506432404.274585, 911)
(u'557 536 0', 1506432404.292662, 912)
(u'615 575 0', 1506432404.310659, 913)
(u'643 609 0', 1506432404.328493, 914)
(u'660 634 0', 1506432404.346993, 915)
(u'684 659 0', 1506432404.364619, 916)
(u'652 658 0', 1506432404.382616, 917)
(u'609 655 0', 1506432404.400758, 918)
(u'581 651 0', 1506432404.418797, 919)
(u'540 645 0', 1506432404.436464, 920)
(u'488 637 0', 1506432404.454372, 921)
(u'490 629 0', 1506432404.47259, 922)
(u'499 622 0', 1506432404.49066, 923)
(u'480 614 0', 1506432404.508622, 924)
(u'479 607 0', 1506432404.526496, 925)
(u'499 601 0', 1506432404.544663, 926)
(u'488 595 0', 1506432404.562594, 927)
(u'474 588 0', 1506432404.581189, 928)
(u'509 584 0', 1506432404.5986, 929)
(u'525 581 0', 1506432404.616558, 930)
(u'520 577 0', 1506432404.634791, 931)
(u'536 574 0', 1506432404.652621, 932)
(u'547 572 0', 1506432404.670679, 933)
(u'512 569 0', 1506432404.688745, 934)
(u'508 565 0', 1506432404.70664, 935)
(u'529 563 0', 1506432404.724499, 936)
(u'504 560 0', 1506432404.742766, 937)
(u'476 555 0', 1506432404.760476, 938)
(u'488 551 0', 1506432404.778546, 939)
(u'489 547 0', 1506432404.797006, 940)
(u'459 542 0', 1506432404.814607, 941)
(u'473 538 0', 1506432404.832768, 942)
(u'489 535 0', 1506432404.850752, 943)
(u'472 531 0', 1506432404.868659, 944)
(u'471 528 0', 1506432404.886794, 945)
(u'503 526 0', 1506432404.904786, 946)
(u'490 524 0', 1506432404.922727, 947)
(u'470 521 0', 1506432404.940549, 948)
(u'484 519 0', 1506432404.95849, 949)
(u'481 517 0', 1506432404.976632, 950)
(u'459 514 0', 1506432404.994632, 951)
(u'479 512 0', 1506432405.012467, 952)
(u'508 511 0', 1506432405.030911, 953)
(u'517 514 0', 1506432405.048655, 954)
(u'552 533 0', 1506432405.066453, 955)
(u'633 583 0', 1506432405.084717, 956)
(u'662 622 0', 1506432405.102738, 957)
(u'672 647 0', 1506432405.120634, 958)
(u'697 672 0', 1506432405.138648, 959)
(u'687 679 0', 1506432405.156881, 960)
(u'638 676 0', 1506432405.174604, 961)
(u'630 673 0', 1506432405.192666, 962)
(u'609 669 0', 1506432405.210683, 963)
(u'554 663 0', 1506432405.22862, 964)
(u'525 656 0', 1506432405.246763, 965)
(u'535 649 0', 1506432405.264625, 966)
(u'508 641 0', 1506432405.282536, 967)
(u'485 633 0', 1506432405.300587, 968)
(u'503 626 0', 1506432405.318781, 969)
(u'506 620 0', 1506432405.336672, 970)
(u'485 613 0', 1506432405.354674, 971)
(u'509 607 0', 1506432405.372816, 972)
(u'538 603 0', 1506432405.390676, 973)
(u'522 598 0', 1506432405.40866, 974)
(u'518 594 0', 1506432405.426487, 975)
(u'544 591 0', 1506432405.444744, 976)
(u'525 587 0', 1506432405.4628, 977)
(u'508 583 0', 1506432405.480645, 978)
(u'529 580 0', 1506432405.498673, 979)
(u'519 576 0', 1506432405.516655, 980)
(u'477 571 0', 1506432405.534458, 981)
(u'480 566 0', 1506432405.552653, 982)
(u'492 562 0', 1506432405.570553, 983)
(u'469 557 0', 1506432405.588685, 984)
(u'477 553 0', 1506432405.606652, 985)
(u'508 550 0', 1506432405.624661, 986)
(u'490 547 0', 1506432405.642675, 987)
(u'469 543 0', 1506432405.660661, 988)
(u'490 540 0', 1506432405.678782, 989)
(u'491 537 0', 1506432405.697044, 990)
(u'461 533 0', 1506432405.714601, 991)
(u'473 530 0', 1506432405.732577, 992)
(u'490 528 0', 1506432405.750795, 993)
(u'468 525 0', 1506432405.768803, 994)
(u'465 522 0', 1506432405.786724, 995)
(u'497 520 0', 1506432405.804788, 996)
(u'494 518 0', 1506432405.822722, 997)
(u'501 517 0', 1506432405.840723, 998)
(u'559 538 0', 1506432405.858678, 999)
(u'606 572 0', 1506432405.876467, 1000)
(u'638 605 0', 1506432405.894642, 1001)
(u'691 648 0', 1506432405.912801, 1002)
(u'724 686 0', 1506432405.931194, 1003)
(u'694 690 0', 1506432405.948611, 1004)
(u'663 688 0', 1506432405.96664, 1005)
(u'663 686 0', 1506432405.984782, 1006)
(u'603 681 0', 1506432406.003157, 1007)
(u'547 674 0', 1506432406.020751, 1008)
(u'544 667 0', 1506432406.038808, 1009)
(u'532 660 0', 1506432406.056795, 1010)
(u'498 651 0', 1506432406.074969, 1011)
(u'505 643 0', 1506432406.092806, 1012)
(u'517 636 0', 1506432406.11105, 1013)
(u'491 628 0', 1506432406.128628, 1014)
(u'491 621 0', 1506432406.1473, 1015)
(u'516 615 0', 1506432406.164578, 1016)
(u'503 609 0', 1506432406.182621, 1017)
(u'493 603 0', 1506432406.2008, 1018)
(u'529 599 0', 1506432406.218427, 1019)
(u'533 595 0', 1506432406.236662, 1020)
(u'505 590 0', 1506432406.254676, 1021)
(u'511 586 0', 1506432406.272663, 1022)
(u'517 582 0', 1506432406.290652, 1023)
(u'483 577 0', 1506432406.308784, 1024)
(u'469 571 0', 1506432406.326622, 1025)
(u'493 567 0', 1506432406.344572, 1026)
(u'481 562 0', 1506432406.362685, 1027)
(u'463 557 0', 1506432406.381043, 1028)
(u'485 553 0', 1506432406.398648, 1029)
(u'485 549 0', 1506432406.416434, 1030)
(u'459 544 0', 1506432406.434478, 1031)
(u'473 540 0', 1506432406.452535, 1032)
(u'490 537 0', 1506432406.470536, 1033)
(u'472 533 0', 1506432406.488557, 1034)
(u'464 529 0', 1506432406.506689, 1035)
(u'488 526 0', 1506432406.524787, 1036)
(u'480 523 0', 1506432406.542691, 1037)
(u'467 520 0', 1506432406.560669, 1038)
(u'487 518 0', 1506432406.578662, 1039)
(u'489 516 0', 1506432406.596977, 1040)
(u'464 513 0', 1506432406.614545, 1041)
(u'477 511 0', 1506432406.632529, 1042)
(u'497 510 0', 1506432406.650662, 1043)
(u'489 508 0', 1506432406.668665, 1044)
(u'524 516 0', 1506432406.686502, 1045)
(u'587 551 0', 1506432406.704656, 1046)
(u'630 590 0', 1506432406.722801, 1047)
(u'651 620 0', 1506432406.740811, 1048)
(u'698 659 0', 1506432406.759291, 1049)
(u'702 680 0', 1506432406.776729, 1050)
(u'661 679 0', 1506432406.794484, 1051)
(u'646 677 0', 1506432406.812512, 1052)
(u'614 673 0', 1506432406.830553, 1053)
(u'555 667 0', 1506432406.848646, 1054)
(u'530 660 0', 1506432406.866478, 1055)
(u'544 654 0', 1506432406.884624, 1056)
(u'514 647 0', 1506432406.902691, 1057)
(u'481 638 0', 1506432406.92082, 1058)
(u'494 630 0', 1506432406.939306, 1059)
(u'491 623 0', 1506432406.956693, 1060)
(u'468 615 0', 1506432406.974692, 1061)
(u'492 608 0', 1506432406.992717, 1062)
(u'518 603 0', 1506432407.010673, 1063)
(u'504 598 0', 1506432407.02869, 1064)
(u'503 593 0', 1506432407.046803, 1065)
(u'536 590 0', 1506432407.064423, 1066)
(u'526 586 0', 1506432407.082588, 1067)
(u'502 581 0', 1506432407.100832, 1068)
(u'515 577 0', 1506432407.11846, 1069)
(u'505 573 0', 1506432407.136642, 1070)
(u'470 567 0', 1506432407.154687, 1071)
(u'478 562 0', 1506432407.172694, 1072)
(u'490 558 0', 1506432407.190688, 1073)
(u'470 553 0', 1506432407.208582, 1074)
(u'472 548 0', 1506432407.226556, 1075)
(u'497 545 0', 1506432407.244509, 1076)
(u'485 542 0', 1506432407.262791, 1077)
(u'464 538 0', 1506432407.2808, 1078)
(u'478 535 0', 1506432407.298705, 1079)
(u'481 532 0', 1506432407.316688, 1080)
(u'451 527 0', 1506432407.334657, 1081)
(u'462 523 0', 1506432407.352816, 1082)
(u'490 521 0', 1506432407.370712, 1083)
(u'472 518 0', 1506432407.38847, 1084)
(u'473 515 0', 1506432407.406674, 1085)
(u'498 514 0', 1506432407.424707, 1086)
(u'480 512 0', 1506432407.442679, 1087)
(u'456 509 0', 1506432407.460686, 1088)
(u'476 507 0', 1506432407.478698, 1089)
(u'474 505 0', 1506432407.496688, 1090)
(u'446 502 0', 1506432407.514688, 1091)
(u'468 500 0', 1506432407.532601, 1092)
(u'498 499 0', 1506432407.550646, 1093)
(u'510 504 0', 1506432407.568669, 1094)
(u'544 524 0', 1506432407.586698, 1095)
(u'629 576 0', 1506432407.604686, 1096)
(u'659 617 0', 1506432407.622829, 1097)
(u'671 644 0', 1506432407.640829, 1098)
(u'697 670 0', 1506432407.658824, 1099)
(u'689 679 0', 1506432407.676828, 1100)
(u'635 676 0', 1506432407.695309, 1101)
(u'620 673 0', 1506432407.712682, 1102)
(u'589 668 0', 1506432407.731183, 1103)
(u'525 660 0', 1506432407.748593, 1104)
(u'498 651 0', 1506432407.766746, 1105)
(u'501 643 0', 1506432407.784611, 1106)
(u'479 634 0', 1506432407.802604, 1107)
(u'462 625 0', 1506432407.820522, 1108)
